 VARIABLES = "x" "u1" "u2" "pres"
  0.00000000  0.99741710  0.30854023  0.71170097
  0.02854984  0.99743970  0.30968800  0.71171618
  0.05681829  0.99640812  0.31298710  0.71067794
  0.08459182  0.99434907  0.31859308  0.70861588
  0.11168957  0.99137682  0.32642558  0.70564700
  0.13797073  0.98750048  0.33636040  0.70178399
  0.16334169  0.98267198  0.34824794  0.69698347
  0.18775875  0.97683041  0.36189419  0.69119032
  0.21113936  0.96992703  0.37706788  0.68436306
  0.23350946  0.96192329  0.39351927  0.67647228
  0.25493212  0.95276188  0.41097384  0.66747230
  0.27538101  0.94240396  0.42915084  0.65733816
  0.29495971  0.93082888  0.44777923  0.64606553
  0.31377279  0.91798203  0.46656035  0.63361929
  0.33176545  0.90385011  0.48519672  0.62000698
  0.34910072  0.88845173  0.50342192  0.60527044
  0.36585234  0.87177203  0.52097346  0.58942236
  0.38208131  0.85380659  0.53759107  0.57248787
  0.39785063  0.83457888  0.55302183  0.55452070
  0.41322424  0.81413442  0.56702822  0.53559711
  0.42826616  0.79253155  0.57939411  0.51580650
  0.44303730  0.76983721  0.58992896  0.49524690
  0.45760274  0.74612499  0.59846936  0.47402253
  0.47202603  0.72147448  0.60487830  0.45224257
  0.48636451  0.69597487  0.60904617  0.43002376
  0.50067371  0.66973202  0.61089253  0.40749601
  0.51500429  0.64288402  0.61036934  0.38481440
  0.52939342  0.61563464  0.60747284  0.36218371
  0.54384301  0.58830227  0.60227472  0.33989049
  0.55827754  0.56137191  0.59497878  0.31833152
  0.57249035  0.53551097  0.58599440  0.29801196
  0.58614096  0.51149011  0.57598818  0.27947682
  0.59873174  0.48993721  0.56575623  0.26313006
  0.60989245  0.47102436  0.55584014  0.24901723
  0.61980674  0.45455519  0.54642133  0.23690980
  0.62892070  0.44045596  0.53785623  0.22668055
  0.63643300  0.42827188  0.53006556  0.21794765
  0.64375213  0.41758039  0.52292796  0.21036615
  0.64993081  0.40807108  0.51634589  0.20368932
  0.65610950  0.39948884  0.51019941  0.19771623
  0.66151091  0.39174793  0.50453325  0.19237433
  0.66675623  0.38457369  0.49908621  0.18746115
  0.67193981  0.37795013  0.49395207  0.18294840
  0.67662001  0.37148576  0.48896081  0.17856890
  0.68130021  0.36466354  0.48368169  0.17401982
  0.68596664  0.35814399  0.47845781  0.16975786
  0.69040476  0.35428656  0.47482839  0.16711656
  0.69484289  0.35449543  0.47386385  0.16684229
  0.69928101  0.35153657  0.47026049  0.16527213
  0.70376904  0.32923152  0.45316592  0.15270378
  0.70826671  0.29427094  0.43492684  0.12686746
  0.71276439  0.31175824  0.45488708  0.12932421
  0.71751264  0.43710756  0.48506238  0.22803166
  0.72238898  0.61166084  0.47214246  0.38545735
  0.72726531  0.72490197  0.44391492  0.48864999
  0.73269930  0.75199276  0.43381626  0.51233936
  0.73833730  0.74249195  0.43441999  0.50283105
  0.74422454  0.73549056  0.43281796  0.49613510
  0.75111928  0.73915944  0.42661646  0.49966483
  0.75825321  0.74706672  0.41835471  0.50724618
  0.76704110  0.75433159  0.40975225  0.51420891
  0.77714413  0.76072970  0.40099054  0.52034350
  0.78937121  0.76710717  0.39124949  0.52650893
  0.80500714  0.77393920  0.37989691  0.53321695
  0.82467805  0.78121540  0.36716709  0.54042320
  0.84814898  0.78867359  0.35412116  0.54770598
  0.87394502  0.79581328  0.34193807  0.55440880
  0.90096598  0.80178462  0.33113234  0.55982680
  0.92872906  0.80560518  0.32173701  0.56366096
  0.95699574  0.80699115  0.31467855  0.56656491
  0.98554435  0.80712363  0.31196366  0.56968619
