 VARIABLES = "X" "rho" "mom" "e" "pres" 
  0.00000000  0.99830359  0.30508679  1.82809275  0.71258988
  0.01000000  0.99830359  0.30508679  1.82809275  0.71258988
  0.02000000  0.99830359  0.30508679  1.82809275  0.71258988
  0.03000000  0.99830359  0.30508679  1.82809275  0.71258988
  0.04000000  0.99830359  0.30508679  1.82809275  0.71258988
  0.05000000  0.99830358  0.30508679  1.82809275  0.71258988
  0.06000000  0.99830359  0.30508679  1.82809278  0.71258989
  0.07000000  0.99830367  0.30508681  1.82809266  0.71258984
  0.08000000  0.99830335  0.30508682  1.82809269  0.71258984
  0.09000000  0.99830025  0.30508630  1.82809276  0.71258988
  0.10000000  0.99833252  0.30513751  1.82818906  0.71262274
  0.11000000  0.99833185  0.30540828  1.82824781  0.71261310
  0.12000000  0.99808194  0.30611134  1.82783694  0.71235787
  0.13000000  0.99765053  0.30728912  1.82714605  0.71192851
  0.14000000  0.99708484  0.30893695  1.82627914  0.71136721
  0.15000000  0.99633694  0.31107470  1.82512192  0.71062378
  0.16000000  0.99542971  0.31369586  1.82372751  0.70971911
  0.17000000  0.99433026  0.31681652  1.82203163  0.70862294
  0.18000000  0.99304088  0.32043961  1.82004552  0.70733704
  0.19000000  0.99154073  0.32457765  1.81773214  0.70584175
  0.20000000  0.98981914  0.32923909  1.81507694  0.70412657
  0.21000000  0.98785688  0.33443549  1.81204843  0.70217305
  0.22000000  0.98563563  0.34017731  1.80861825  0.69996352
  0.23000000  0.98313285  0.34647547  1.80475045  0.69747635
  0.24000000  0.98032398  0.35333994  1.80040625  0.69468807
  0.25000000  0.97718110  0.36077959  1.79554118  0.69157209
  0.26000000  0.97367323  0.36880134  1.79010585  0.68809908
  0.27000000  0.96976592  0.37740940  1.78404508  0.68423663
  0.28000000  0.96542119  0.38660424  1.77729778  0.67994924
  0.29000000  0.96059736  0.39638154  1.76979655  0.67519829
  0.30000000  0.95524909  0.40673085  1.76146758  0.66994216
  0.31000000  0.94932733  0.41763416  1.75223052  0.66413635
  0.32000000  0.94277958  0.42906430  1.74199860  0.65773389
  0.33000000  0.93555025  0.44098320  1.73067903  0.65068581
  0.34000000  0.92758119  0.45334014  1.71817358  0.64294198
  0.35000000  0.91881254  0.46606992  1.70437971  0.63445209
  0.36000000  0.90918385  0.47909124  1.68919199  0.62516698
  0.37000000  0.89863559  0.49230531  1.67250424  0.61504036
  0.38000000  0.88711086  0.50559478  1.65421192  0.60403073
  0.39000000  0.87455795  0.51882366  1.63421614  0.59210393
  0.40000000  0.86093187  0.53183716  1.61242551  0.57923501
  0.41000000  0.84620011  0.54446514  1.58876620  0.56541293
  0.42000000  0.83033782  0.55652010  1.56317253  0.55063822
  0.43000000  0.81335097  0.56781355  1.53562829  0.53493850
  0.44000000  0.79523126  0.57813299  1.50608723  0.51834004
  0.45000000  0.77606790  0.58731205  1.47466846  0.50093887
  0.46000000  0.75582459  0.59511154  1.44127380  0.48275891
  0.47000000  0.73476934  0.60145569  1.40631812  0.46402503
  0.48000000  0.71277966  0.60610238  1.36957320  0.44471418
  0.49000000  0.69026485  0.60903824  1.33165284  0.42515230
  0.50000000  0.66517432  0.60989262  1.28913031  0.40376400
  0.51000000  0.63888127  0.60866118  1.24435954  0.38173311
  0.52000000  0.61438270  0.60589064  1.20232790  0.36139431
  0.53000000  0.59016202  0.60139610  1.16046337  0.34158515
  0.54000000  0.56612649  0.59521588  1.11860255  0.32225191
  0.55000000  0.54239300  0.58748562  1.07694950  0.30348761
  0.56000000  0.51910556  0.57837995  1.03576346  0.28539646
  0.57000000  0.49640019  0.56809183  0.99529774  0.26806959
  0.58000000  0.47439349  0.55682193  0.95577741  0.25157668
  0.59000000  0.45318707  0.54477483  0.91740884  0.23597158
  0.60000000  0.43284957  0.53214256  0.88033807  0.22127719
  0.61000000  0.41345979  0.51912908  0.84474710  0.20752441
  0.62000000  0.39500486  0.50586177  0.81061794  0.19466921
  0.63000000  0.37762711  0.49261847  0.77830275  0.18278583
  0.64000000  0.36104404  0.47920515  0.74715934  0.17164716
  0.65000000  0.34588539  0.46652453  0.71870993  0.16162857
  0.66000000  0.33036602  0.45179702  0.68838146  0.15177540
  0.67000000  0.46164356  0.44214969  0.89282576  0.26378129
  0.68000000  0.66777767  0.43280821  1.24173211  0.43978525
  0.69000000  0.73793428  0.41843171  1.37479694  0.50244880
  0.70000000  0.74636370  0.40720465  1.38818784  0.51082532
  0.71000000  0.75472653  0.39669891  1.40154937  0.51890404
  0.72000000  0.76197139  0.38688352  1.41300746  0.52590460
  0.73000000  0.76842451  0.37765306  1.42321328  0.53215551
  0.74000000  0.77412010  0.36901740  1.43219923  0.53769045
  0.75000000  0.77916389  0.36097029  1.44014498  0.54260565
  0.76000000  0.78362762  0.35350804  1.44716629  0.54696655
  0.77000000  0.78757620  0.34662314  1.45336938  0.55083273
  0.78000000  0.79106350  0.34030656  1.45884162  0.55425394
  0.79000000  0.79413543  0.33454794  1.46365735  0.55727291
  0.80000000  0.79683123  0.32933642  1.46787990  0.55992627
  0.81000000  0.79918387  0.32466070  1.47156219  0.56224507
  0.82000000  0.80122209  0.32051027  1.47475055  0.56425634
  0.83000000  0.80296864  0.31687407  1.47748076  0.56598181
  0.84000000  0.80444482  0.31374376  1.47978773  0.56744156
  0.85000000  0.80566399  0.31110894  1.48168987  0.56864837
  0.86000000  0.80664104  0.30896503  1.48321429  0.56961704
  0.87000000  0.80737923  0.30730224  1.48436135  0.57035148
  0.88000000  0.80789493  0.30612049  1.48514443  0.57085920
  0.89000000  0.80818809  0.30540236  1.48559892  0.57115814
  0.90000000  0.80837270  0.30511913  1.48593876  0.57134215
  0.91000000  0.80847313  0.30508680  1.48613552  0.57142859
  0.92000000  0.80847310  0.30508680  1.48613546  0.57142857
  0.93000000  0.80847311  0.30508679  1.48613547  0.57142857
  0.94000000  0.80847310  0.30508679  1.48613546  0.57142857
  0.95000000  0.80847311  0.30508679  1.48613547  0.57142857
  0.96000000  0.80847311  0.30508679  1.48613546  0.57142857
  0.97000000  0.80847311  0.30508679  1.48613547  0.57142857
  0.98000000  0.80847311  0.30508679  1.48613547  0.57142857
  0.99000000  0.80847311  0.30508679  1.48613547  0.57142857
  1.00000000  0.80847311  0.30508679  1.48613547  0.57142857
